 data bronce largo25 (Cambiar theta con py)  
t x y θ 
0.000 1.302 4.873 75.0
0.033 2.810 5.031 60.8
0.067 4.079 5.238 52.1
0.100 5.271 5.483 46.1
0.133 6.090 5.673 43.0
0.167 6.784 5.798 40.5
0.200 7.327 5.841 38.6
0.233 7.476 5.862 38.1
0.267 7.354 5.808 38.3
0.300 6.846 5.736 40.0
0.333 6.214 5.619 42.1
0.367 5.123 5.378 46.4
0.400 3.926 5.126 52.6
0.433 2.848 4.979 60.2
0.467 1.003 4.748 78.1
0.500 -0.644 4.728 97.8
0.533 -2.149 4.751 114.3
0.567 -3.619 4.907 126.4
0.600 -5.088 5.115 134.9
0.633 -6.253 5.327 139.6
0.667 -7.267 5.553 142.6
0.700 -7.995 5.744 144.3
0.733 -8.629 5.796 146.1
0.767 -8.370 6.786 141.0
0.800 -8.243 6.751 140.7
0.833 -8.117 5.744 144.7
0.867 -7.494 5.598 143.2
0.900 -6.460 5.385 140.2
0.933 -5.490 5.204 136.5
0.967 -4.300 5.032 130.5
1.000 -2.843 4.871 120.3
1.033 -1.116 4.787 103.1
1.067 0.355 4.806 85.8
1.100 2.026 4.929 67.7
1.133 2.972 5.035 59.4
1.167 4.637 5.323 48.9
1.200 5.641 5.493 44.2
1.233 6.425 5.668 41.4
1.267 6.596 6.089 42.7
1.300 6.976 6.197 41.6
1.333 6.974 6.418 42.6
1.367 6.756 6.213 42.6
1.400 6.270 5.941 43.5
1.433 5.774 5.480 43.5
1.467 4.917 5.271 47.0
1.500 3.566 5.056 54.8
1.533 2.082 4.853 66.8
1.567 0.223 4.805 87.3
1.600 -1.416 4.842 106.3
1.633 -2.383 4.842 116.2
1.667 -4.237 4.998 130.3
1.700 -5.565 5.209 136.9
1.733 -6.585 5.432 140.5
1.766 -7.152 6.325 138.5
1.800 -8.480 5.985 144.8
1.833 -8.840 6.147 145.2
1.866 -8.908 6.165 145.3
1.900 -8.734 6.071 145.2
1.933 -8.309 5.940 144.4
1.966 -7.588 5.740 142.9
2.000 -6.603 5.463 140.4
2.033 -5.484 5.309 135.9
2.066 -4.135 5.055 129.3
2.100 -2.729 4.908 119.1
2.133 -1.216 4.825 104.1
2.166 0.315 4.829 86.3
2.200 1.765 4.914 70.2
2.233 3.541 5.085 55.1
2.266 4.440 5.239 49.7
2.300 5.424 5.479 45.3
2.333 6.081 5.977 44.5
2.366 6.652 6.179 42.9
2.400 6.987 6.226 41.7
2.433 6.974 6.216 41.7
2.466 6.623 6.110 42.7
2.500 6.043 5.759 43.6
2.533 5.034 5.690 48.5
2.566 4.012 5.261 52.7
2.600 2.663 5.047 62.2
2.633 1.148 4.969 77.0
2.666 -0.293 4.749 93.5
2.700 -2.007 4.907 112.2
2.733 -3.471 4.904 125.3
2.766 -4.927 5.099 134.0
2.800 -6.192 5.317 139.3
2.833 -7.295 5.623 142.4
2.866 -8.111 5.841 144.2
2.900 -8.625 6.010 145.1
2.933 -8.821 6.362 144.2
2.966 -8.825 6.372 144.2
3.000 -8.624 6.085 144.8
3.033 -8.118 5.998 143.5
3.066 -7.385 5.658 142.5
3.100 -6.379 5.490 139.3
3.133 -5.188 5.266 134.6
3.166 -3.875 5.235 126.5
3.200 -2.450 5.027 116.0
3.233 -0.888 4.841 100.4
3.266 0.525 5.311 84.3
3.300 1.925 5.239 69.8
3.333 3.254 5.397 58.9
3.366 4.429 5.603 51.7
3.400 5.406 5.926 47.6
3.433 6.186 6.007 44.2
3.466 6.672 6.232 43.0
3.500 6.861 6.314 42.6
3.533 6.755 6.263 42.8
3.566 6.374 6.084 43.7
3.600 5.689 5.847 45.8
3.633 4.724 5.633 50.0
3.666 3.585 5.345 56.2
3.700 2.215 5.174 66.8
3.733 0.767 4.975 81.2
3.766 -0.748 4.810 98.8
3.800 -2.309 4.845 115.5
3.833 -3.771 4.939 127.4
3.866 -5.202 5.165 135.2
3.900 -6.449 5.424 139.9
3.933 -7.448 5.669 142.7
3.966 -8.163 5.837 144.4
4.000 -8.649 6.153 144.6
4.033 -8.843 6.232 144.8
4.066 -8.766 6.215 144.7
4.100 -8.407 5.826 145.3
4.133 -7.864 5.818 143.5
4.166 -7.051 5.612 141.5
4.200 -5.930 5.265 138.4
4.233 -4.750 5.134 132.8
4.266 -3.396 4.977 124.3
4.300 -1.891 4.821 111.4
4.333 -0.459 4.871 95.4
4.366 1.051 4.882 77.8
4.400 2.442 4.996 63.9
4.433 3.810 5.125 53.4
4.466 4.778 5.481 48.9
4.500 5.617 5.913 46.5
4.533 6.315 6.091 44.0
4.566 6.725 6.262 43.0
4.600 6.840 6.316 42.7
4.633 6.650 6.253 43.2
4.666 6.186 6.041 44.3
4.700 5.475 5.653 45.9
4.733 4.412 5.489 51.2
4.766 3.207 5.201 58.3
4.800 1.897 4.915 68.9
4.833 0.382 4.792 85.4
4.866 -1.155 4.737 103.7
4.900 -2.790 4.915 119.6
4.933 -4.128 4.896 130.1
4.966 -5.432 5.103 136.8
5.000 -6.777 5.481 141.0
5.033 -7.640 5.663 143.5
5.066 -8.341 5.910 144.7
5.099 -8.709 6.135 144.8
5.133 -8.827 6.232 144.8
5.166 -8.900 6.101 145.6
5.199 -8.566 6.026 144.9
5.233 -7.679 5.741 143.2
5.266 -6.690 5.433 140.9
5.299 -5.663 5.283 137.0
5.333 -4.159 4.987 129.8
5.366 -2.371 4.884 115.9
5.399 -1.402 4.798 106.3
5.433 0.482 4.841 84.3
5.466 1.440 4.936 73.7
5.499 2.880 5.042 60.3
5.533 4.202 5.241 51.3
5.566 5.437 5.452 45.1
5.599 6.174 5.628 42.3
5.633 6.702 5.767 40.7
5.666 6.766 6.238 42.7
5.699 6.818 6.209 42.3
5.733 6.564 6.094 42.9
5.766 6.131 5.712 43.0
5.799 5.289 5.510 46.2
5.833 4.192 5.294 51.6
5.866 2.881 5.114 60.6
5.899 1.531 4.861 72.5
5.933 -1.457E-2 4.781 90.2
5.966 -1.614 4.800 108.6
5.999 -3.160 4.912 122.8
6.033 -4.541 5.017 132.1
6.066 -5.917 5.314 138.1
6.099 -6.964 5.480 141.8
6.133 -7.873 5.778 143.7
6.166 -8.443 5.948 144.8
6.199 -9.008 6.143 145.7
6.233 -8.748 5.781 146.5
6.266 -8.933 6.101 145.7
6.299 -8.170 5.904 144.1
6.333 -7.452 5.651 142.8
6.366 -6.491 5.411 140.2
6.399 -5.348 5.315 135.2
6.433 -4.053 5.062 128.7
6.466 -2.637 4.915 118.2
6.499 -1.184 4.942 103.5
6.533 0.316 4.885 86.3
6.566 1.750 4.955 70.5
6.599 3.015 5.243 60.1
6.633 4.191 5.421 52.3
6.666 5.200 5.651 47.4
6.699 5.973 5.924 44.8
6.733 6.197 5.991 44.0
6.766 6.765 6.223 42.6
6.799 6.709 6.210 42.8
6.833 6.378 6.011 43.3
6.866 5.699 5.880 45.9
6.899 4.807 5.580 49.3
6.933 3.714 5.293 54.9
6.966 2.393 5.173 65.2
6.999 0.956 5.056 79.3
7.033 -0.516 4.768 96.2
7.066 -2.093 4.942 113.0
7.099 -3.609 5.073 125.4
7.133 -4.998 5.259 133.5
7.166 -6.249 5.345 139.5
7.199 -7.283 5.564 142.6
7.233 -8.048 5.884 143.8
7.266 -8.830 6.063 145.5
7.299 -8.761 6.195 144.7
7.333 -8.711 6.364 143.9
7.366 -8.479 6.174 143.9
7.399 -7.976 5.797 144.0
7.433 -7.205 5.577 142.3
7.466 -6.194 5.426 138.8
7.499 -5.007 5.241 133.7
7.533 -3.661 5.066 125.9
7.566 -2.239 4.958 114.3
7.599 -0.770 4.876 99.0
7.633 0.719 4.846 81.6
7.666 2.110 4.987 67.1
7.699 3.323 5.314 58.0
7.733 4.442 5.522 51.2
7.766 5.358 5.828 47.4
7.799 6.114 5.935 44.1
7.833 6.543 6.163 43.3
7.866 6.723 6.189 42.6
7.899 6.571 6.171 43.2
7.933 6.156 6.000 44.3
7.966 5.523 5.616 45.5
7.999 4.501 5.531 50.9
8.033 3.320 5.368 58.3
8.066 2.001 5.164 68.8
8.099 0.600 4.828 82.9
8.133 -0.952 4.817 101.2
8.166 -2.508 5.096 116.2
8.199 -3.971 5.063 128.1
8.233 -5.308 5.178 135.7
8.266 -6.483 5.385 140.3
8.299 -7.489 5.722 142.6
8.332 -8.166 5.924 144.0
8.366 -8.893 6.161 145.3
8.399 -8.740 6.273 144.3
8.432 -9.041 6.143 145.8
8.466 -8.580 6.038 144.9
8.499 -7.758 5.801 143.2
8.532 -6.890 5.569 141.1
8.566 -5.851 5.426 137.2
8.599 -4.603 5.195 131.5
8.632 -3.180 4.935 122.8
8.666 -1.824 4.996 110.1
8.699 -0.311 4.872 93.6
8.732 1.123 4.913 77.1
8.766 2.491 5.039 63.7
8.799 3.595 5.490 56.8
8.832 4.677 5.567 50.0
8.866 5.533 5.872 46.7
8.899 5.907 5.871 44.8
8.932 6.558 6.125 43.0
8.966 6.599 6.237 43.4
8.999 6.381 6.161 44.0
9.032 5.964 5.839 44.4
9.066 5.122 5.672 47.9
9.099 4.110 5.411 52.8
9.132 3.065 5.051 58.7
9.166 1.583 4.999 72.4
9.199 0.247 4.760 87.0
9.232 -1.390 4.840 106.0
9.266 -2.825 4.814 120.4
9.299 -4.407 5.091 130.9
9.332 -5.623 5.180 137.3
9.366 -6.755 5.429 141.2
9.399 -7.840 5.776 143.6
9.432 -8.567 5.895 145.5
9.466 -8.910 6.011 146.0
9.499 -8.739 6.260 144.4
9.532 -8.948 6.056 145.9
9.566 -8.202 5.893 144.3
9.599 -7.608 5.721 143.1
9.632 -6.639 5.484 140.4
9.666 -5.465 5.237 136.2
9.699 -4.128 4.980 129.7
9.732 -2.853 4.944 120.0
9.766 -0.884 4.772 100.5
9.799 9.381E-2 4.822 88.9
9.832 1.408 5.048 74.4
9.866 2.919 4.987 59.7
9.899 3.905 5.347 53.9
9.932 4.925 5.546 48.4
9.966 5.482 5.723 46.2
9.999 5.924 5.856 44.7
10.032 6.337 5.894 42.9
10.066 6.335 5.894 42.9
10.099 6.007 5.789 43.9
10.132 5.506 5.702 46.0
10.166 4.852 5.544 48.8
10.199 4.389 5.158 49.6
10.232 3.091 4.980 58.2
10.266 1.617 4.811 71.4
10.299 0.190 4.732 87.7
10.332 -1.066 4.767 102.6
10.366 -2.925 4.809 121.3
10.399 -4.250 4.998 130.4
10.432 -5.714 5.198 137.7
10.466 -6.848 5.428 141.6
10.499 -7.609 5.606 143.6
10.532 -8.655 6.028 145.1
10.566 -8.918 6.151 145.4
10.599 -8.943 6.081 145.8
10.632 -8.729 6.018 145.4
10.666 -8.142 5.932 143.9
10.699 -7.043 5.495 142.0
10.732 -6.077 5.294 138.9
10.766 -4.811 5.077 133.5
10.799 -3.551 4.907 125.9
10.832 -2.158 4.770 114.3
10.866 -0.294 4.797 93.5
10.899 0.913 4.792 79.2
10.932 2.114 4.861 66.5
10.966 3.499 5.055 55.3
10.999 4.704 5.258 48.2
11.032 5.604 5.413 44.0
11.066 6.283 5.557 41.5
11.099 6.003 5.879 44.4
11.132 6.224 5.815 43.1
11.166 6.143 5.850 43.6
11.199 6.456 5.603 41.0
11.232 5.828 5.480 43.2
11.266 4.791 5.296 47.9
11.299 3.898 5.106 52.6
11.332 2.909 4.956 59.6
11.366 1.357 4.783 74.2
11.399 -0.318 4.716 93.9
11.432 -1.646 4.760 109.1
11.466 -3.435 4.858 125.3
11.499 -4.847 5.029 133.9
11.532 -6.100 5.272 139.2
11.566 -7.108 5.483 142.4
11.599 -7.671 5.637 143.7
11.632 -8.764 5.997 145.6
11.665 -8.140 6.309 142.2
11.699 -8.989 6.058 146.0
11.732 -8.521 6.040 144.7
11.765 -7.493 5.599 143.2
11.799 -6.474 5.438 140.0
11.832 -5.674 5.219 137.4
11.865 -4.462 5.020 131.6
11.899 -3.026 4.872 121.8
11.932 -1.624 4.766 108.8
11.965 -0.240 4.746 92.9
11.999 1.150 4.779 76.5
12.032 2.645 4.939 61.8
12.065 3.871 5.094 52.8
12.099 4.686 5.262 48.3
12.132 5.770 5.432 43.3
12.165 6.384 5.552 41.0
12.199 6.075 5.801 43.7
12.232 6.555 5.963 42.3
12.265 6.014 5.811 44.0
12.299 6.136 5.576 42.3
12.332 5.491 5.418 44.6
12.365 4.689 5.249 48.2
12.399 3.626 5.083 54.5
12.432 2.004 4.838 67.5
12.465 0.985 4.809 78.4
12.499 -0.540 4.770 96.5
12.532 -2.438 4.776 117.0
12.565 -3.885 4.914 128.3
12.599 -5.179 5.143 135.2
12.632 -6.227 5.371 139.2
12.665 -7.490 5.682 142.8
12.699 -8.206 5.892 144.3
12.732 -8.824 6.006 145.8
12.765 -8.687 6.315 144.0
12.799 -8.761 6.021 145.5
12.832 -8.216 5.944 144.1
12.865 -7.609 5.731 143.0
12.899 -6.500 5.390 140.3
12.932 -4.979 5.243 133.5
12.965 -3.815 5.064 127.0
12.999 -2.344 4.913 115.5
13.032 -1.086 4.811 102.7
13.065 0.473 4.846 84.4
13.099 1.797 4.905 69.9
13.132 2.857 4.980 60.2
13.165 4.234 5.188 50.8
13.199 4.666 5.501 49.7
13.232 5.318 5.672 46.8
13.265 5.824 5.778 44.8
13.299 6.137 5.853 43.6
13.332 6.168 5.864 43.6
13.365 5.919 5.811 44.5
13.399 5.431 5.699 46.4
13.432 4.769 5.544 49.3
13.465 3.823 5.345 54.4
13.499 2.653 5.147 62.7
13.532 1.591 4.810 71.7
13.565 7.241E-2 4.736 89.1
13.599 -0.935 4.778 101.1
13.632 -2.603 4.830 118.3
13.665 -3.971 4.989 128.5
13.699 -5.435 5.199 136.3
13.732 -6.438 5.421 139.9
13.765 -7.489 5.617 143.1
13.799 -8.061 5.745 144.5
13.832 -8.899 6.178 145.2
13.865 -8.835 6.140 145.2
13.899 -8.674 6.144 144.7
13.932 -7.970 5.848 143.7
13.965 -7.286 5.696 142.0
13.999 -5.914 5.385 137.7
14.032 -4.839 5.180 133.1
14.065 -3.655 4.968 126.3
14.099 -2.289 4.832 115.4
14.132 -0.809 4.787 99.6
14.165 0.412 4.788 85.1
14.199 1.985 4.916 68.0
14.232 3.286 5.062 57.0
14.265 4.348 5.227 50.2
14.299 5.301 5.380 45.4
14.332 5.970 5.532 42.8
14.365 5.806 5.841 45.2
14.399 6.357 6.052 43.6
14.432 6.307 6.040 43.8
14.465 5.690 5.799 45.5
14.499 5.394 5.769 46.9
14.532 4.588 5.478 50.1
14.565 3.644 5.185 54.9
14.599 2.811 4.993 60.6
14.632 1.017 4.852 78.2
14.665 -0.452 4.810 95.4
14.699 -1.648 4.781 109.0
14.732 -3.133 4.886 122.7
14.765 -4.339 5.082 130.5
14.799 -5.922 5.274 138.3
14.832 -6.725 5.490 140.8
14.865 -7.523 5.666 143.0
14.899 -8.592 6.048 144.9
14.932 -8.799 6.127 145.2
14.965 -8.780 6.125 145.1
14.998 -8.549 6.059 144.7
15.032 -7.833 5.904 143.0
15.065 -6.975 5.579 141.3
15.098 -5.661 5.324 136.8
15.132 -4.798 5.153 133.0
15.165 -3.069 4.968 121.7
15.198 -1.624 4.849 108.5
15.232 -0.208 4.818 92.5
15.265 0.834 4.801 80.1
15.298 2.539 4.959 62.9
15.332 3.616 5.080 54.6
15.365 4.240 5.415 51.9
15.398 5.092 5.672 48.1
15.432 5.732 5.878 45.7
15.465 5.825 5.817 45.0
15.498 6.263 6.167 44.6
15.532 5.834 5.810 44.9
15.565 5.510 5.730 46.1
15.598 5.130 5.672 47.9
15.632 4.230 5.424 52.0
15.665 3.109 5.233 59.3
