 Madera (Angulo F calcular theta con py)   
t x y θ 
0.000 5.754 3.485 31.2
0.033 5.386 3.340 31.8
0.067 4.289 3.230 37.0
0.100 3.294 3.104 43.3
0.133 2.057 2.994 55.5
0.167 0.580 2.969 79.0
0.200 -0.670 2.989 102.6
0.233 -1.959 3.020 123.0
0.267 -3.312 3.129 136.6
0.300 -4.523 3.250 144.3
0.333 -5.569 3.381 148.7
0.367 -6.527 3.505 151.8
0.400 -7.270 3.623 153.5
0.433 -7.844 3.723 154.6
0.467 -8.142 3.790 155.0
0.500 -8.911 3.665 157.6
0.533 -8.879 3.665 157.6
0.567 -8.840 3.595 157.9
0.600 -8.321 3.523 157.1
0.633 -7.745 3.464 155.9
0.667 -7.012 3.327 154.6
0.700 -6.124 3.220 152.3
0.733 -5.154 3.087 149.1
0.767 -4.087 2.992 143.8
0.800 -2.247 3.013 126.7
0.833 -1.033 2.967 109.2
0.867 0.125 2.972 87.6
0.900 1.351 2.977 65.6
0.933 2.510 3.032 50.4
0.967 3.595 3.119 40.9
1.000 4.663 3.234 34.7
1.033 5.579 3.336 30.9
1.067 6.511 3.439 27.8
1.100 7.278 3.543 26.0
1.133 7.880 3.628 24.7
1.167 8.295 3.701 24.0
1.200 8.530 3.731 23.6
1.233 8.576 3.736 23.5
1.267 8.408 3.704 23.8
1.300 8.040 3.634 24.3
1.333 7.487 3.541 25.3
1.367 6.770 3.436 26.9
1.400 5.815 3.323 29.7
1.433 4.769 3.193 33.8
1.467 3.620 3.113 40.7
1.500 2.412 3.022 51.4
1.533 1.152 2.973 68.8
1.567 -0.219 2.969 94.2
1.600 -1.470 2.985 116.2
1.633 -2.780 3.057 132.3
1.666 -3.984 3.145 141.7
1.700 -5.107 3.268 147.4
1.733 -6.041 3.382 150.8
1.766 -6.830 3.502 152.9
1.800 -7.449 3.602 154.2
1.833 -7.863 3.681 154.9
1.866 -8.096 3.729 155.3
1.900 -8.130 3.727 155.4
1.933 -8.010 3.712 155.1
1.966 -7.677 3.650 154.6
2.000 -7.209 3.573 153.6
2.033 -6.546 3.458 152.2
2.066 -5.762 3.355 149.8
2.100 -4.867 3.246 146.3
2.133 -3.891 3.155 141.0
2.166 -2.795 3.054 132.5
2.200 -1.633 2.986 118.7
2.233 -0.530 2.962 100.2
2.266 0.608 2.980 78.5
2.300 1.791 3.012 59.3
2.333 2.766 3.088 48.1
2.366 3.835 3.171 39.6
2.400 4.805 3.269 34.2
2.433 5.793 3.360 30.1
2.466 6.558 3.469 27.9
2.500 7.149 3.562 26.5
2.533 7.005 3.645 27.5
2.566 7.335 3.690 26.7
2.600 7.405 3.697 26.5
2.633 7.333 3.686 26.7
2.666 6.875 3.653 28.0
2.700 6.458 3.585 29.0
2.733 5.833 3.488 30.9
2.766 5.003 3.390 34.1
2.800 3.939 3.306 40.0
2.833 2.907 3.233 48.0
2.866 2.666 3.037 48.7
2.900 1.475 2.975 63.6
2.933 -6.187E-2 3.073 91.2
2.966 -1.230 3.004 112.3
3.000 -2.332 3.030 127.6
3.033 -3.497 3.121 138.3
3.066 -4.609 3.226 145.0
3.100 -5.595 3.343 149.1
3.133 -6.399 3.449 151.7
3.166 -7.057 3.557 153.3
3.200 -7.546 3.632 154.3
3.233 -7.837 3.679 154.9
3.266 -7.934 3.693 155.0
3.300 -7.844 3.672 154.9
3.333 -7.595 3.628 154.5
3.366 -7.185 3.567 153.6
3.400 -6.646 3.484 152.3
3.433 -5.912 3.381 150.2
3.466 -5.078 3.278 147.2
3.500 -4.125 3.176 142.4
3.533 -3.071 3.076 135.0
3.566 -1.965 3.011 123.1
3.600 -0.876 2.984 106.4
3.633 0.253 2.987 85.2
3.666 1.358 3.005 65.7
3.700 2.454 3.047 51.2
3.733 3.445 3.127 42.2
3.766 4.481 3.218 35.7
3.800 5.407 3.324 31.6
3.833 6.180 3.421 29.0
3.866 6.786 3.523 27.4
3.900 6.741 3.607 28.1
3.933 6.881 3.645 27.9
3.966 7.241 3.658 26.8
4.000 7.001 3.664 27.6
4.033 6.923 3.646 27.8
4.066 6.532 3.588 28.8
4.100 5.942 3.504 30.5
4.133 5.223 3.408 33.1
4.166 4.218 3.315 38.2
4.200 3.178 3.241 45.6
4.233 2.903 3.091 46.8
4.266 1.910 3.011 57.6
4.300 0.669 2.987 77.4
4.333 -0.542 2.965 100.4
4.366 -1.717 2.976 120.0
4.400 -2.919 3.056 133.7
4.433 -3.999 3.137 141.9
4.466 -5.020 3.257 147.0
4.500 -5.912 3.384 150.2
4.533 -6.562 3.488 152.0
4.566 -7.101 3.560 153.4
4.600 -7.476 3.625 154.1
4.633 -7.698 3.663 154.6
4.666 -7.696 3.670 154.5
4.700 -7.480 3.631 154.1
4.733 -7.130 3.576 153.4
4.766 -6.650 3.499 152.2
4.800 -6.030 3.416 150.5
4.833 -5.204 3.305 147.6
4.866 -4.334 3.209 143.5
4.900 -3.336 3.112 137.0
4.933 -2.289 3.036 127.0
4.966 -1.231 2.992 112.4
4.999 -0.163 2.970 93.1
5.033 0.919 2.988 72.9
5.066 2.033 3.028 56.1
5.099 3.046 3.100 45.5
5.133 4.001 3.177 38.5
5.166 4.869 3.267 33.9
5.199 5.095 3.398 33.7
5.233 5.748 3.475 31.2
5.266 6.200 3.553 29.8
5.299 6.625 3.608 28.6
5.333 6.818 3.627 28.0
5.366 6.837 3.635 28.0
5.399 6.731 3.616 28.2
5.433 6.450 3.577 29.0
5.466 5.976 3.504 30.4
5.499 5.157 3.419 33.5
5.533 4.448 3.317 36.7
5.566 3.350 3.256 44.2
5.599 2.380 3.165 53.1
5.633 2.230 3.010 53.5
5.666 1.411 3.333 67.1
5.699 -0.186 3.114 93.4
5.733 -2.133 2.896 126.4
5.766 -2.702 3.155 130.6
5.799 -4.277 3.030 144.7
5.833 -5.222 3.118 149.2
5.866 -6.085 3.221 152.1
5.899 -6.807 3.308 154.1
5.933 -7.370 3.383 155.3
5.966 -7.741 3.455 155.9
5.999 -7.984 3.488 156.4
6.033 -8.037 3.444 156.8
6.066 -7.934 3.443 156.5
6.099 -7.613 3.446 155.6
6.133 -7.172 3.388 154.7
6.166 -6.594 3.300 153.4
6.199 -5.195 3.484 146.1
6.233 -5.074 3.104 148.5
6.266 -3.527 3.073 138.9
6.299 -2.495 3.032 129.5
6.333 -1.469 2.985 116.2
6.366 -0.429 2.963 98.2
6.399 0.624 2.966 78.1
6.433 1.695 3.005 60.6
6.466 2.709 3.062 48.5
6.499 3.687 3.129 40.3
6.533 4.604 3.215 34.9
6.566 5.400 3.300 31.4
6.599 6.134 3.374 28.8
6.633 6.723 3.456 27.2
6.666 7.146 3.528 26.3
6.699 7.435 3.565 25.6
6.733 7.573 3.566 25.2
6.766 7.493 3.561 25.4
6.799 7.261 3.524 25.9
6.833 6.827 3.457 26.9
6.866 6.222 3.393 28.6
6.899 5.508 3.301 30.9
6.933 4.601 3.200 34.8
6.966 3.645 3.115 40.5
6.999 2.625 3.035 49.1
7.033 1.534 2.988 62.8
7.066 0.380 2.963 82.7
7.099 -0.756 2.959 104.3
7.133 -1.867 2.992 122.0
7.166 -2.960 3.058 134.1
7.199 -3.970 3.135 141.7
7.233 -4.844 3.226 146.3
7.266 -5.609 3.327 149.3
7.299 -6.232 3.409 151.3
7.333 -6.737 3.487 152.6
7.366 -6.996 3.527 153.2
7.399 -7.098 3.532 153.5
7.433 -7.078 3.540 153.4
7.466 -6.855 3.502 152.9
7.499 -6.499 3.445 152.1
7.533 -6.018 3.379 150.7
7.566 -5.340 3.284 148.4
7.599 -4.586 3.196 145.1
7.633 -3.753 3.112 140.3
7.666 -2.845 3.047 133.0
7.699 -1.821 2.988 121.4
7.733 -0.786 2.955 104.9
7.766 0.207 2.957 86.0
7.799 1.222 2.962 67.6
7.833 2.207 3.007 53.7
7.866 3.216 3.071 43.7
7.899 4.120 3.155 37.4
7.933 4.944 3.238 33.2
7.966 5.650 3.315 30.4
7.999 6.346 3.384 28.1
8.033 6.848 3.447 26.7
8.066 7.176 3.492 26.0
8.099 7.328 3.524 25.7
8.133 7.321 3.525 25.7
8.166 7.155 3.498 26.1
8.199 6.822 3.445 26.8
8.233 6.337 3.380 28.1
8.266 5.674 3.291 30.1
8.299 4.870 3.205 33.4
8.332 3.939 3.118 38.4
8.366 2.955 3.035 45.8
8.399 1.936 2.974 56.9
8.432 0.811 2.944 74.6
8.466 -0.310 2.936 96.0
8.499 -1.404 2.954 115.4
8.532 -2.481 3.006 129.5
8.566 -3.448 3.078 138.3
8.599 -5.213 3.089 149.3
8.632 -5.383 3.362 148.0
8.666 -6.613 3.278 153.6
8.699 -7.108 3.338 154.8
8.732 -7.365 3.382 155.3
8.766 -7.623 3.426 155.8
8.799 -7.627 3.424 155.8
8.832 -7.379 3.375 155.4
8.866 -7.111 3.351 154.8
8.899 -6.644 3.276 153.8
8.932 -6.064 3.209 152.1
8.966 -5.376 3.114 149.9
8.999 -4.560 3.046 146.3
9.032 -3.704 2.975 141.2
9.066 -2.788 2.905 133.8
9.099 -1.847 2.868 122.8
9.132 -8.622E-2 2.934 91.7
9.166 0.921 2.928 72.5
9.199 1.955 2.964 56.6
9.232 2.864 3.033 46.6
9.266 3.788 3.096 39.3
9.299 4.606 3.160 34.5
9.332 5.257 3.254 31.8
9.366 5.998 3.326 29.0
9.399 6.517 3.387 27.5
9.432 6.883 3.443 26.6
9.466 7.096 3.477 26.1
9.499 7.157 3.488 26.0
9.532 7.061 3.469 26.2
9.566 6.790 3.423 26.8
9.599 6.359 3.357 27.8
9.632 5.745 3.284 29.8
9.666 5.012 3.203 32.6
9.699 4.176 3.122 36.8
9.732 3.233 3.049 43.3
9.766 2.237 2.982 53.1
9.799 1.122 2.951 69.2
9.832 2.917E-2 2.944 89.4
9.866 -1.048 2.944 109.6
9.899 -2.059 2.992 124.5
9.932 -3.067 3.051 135.1
9.966 -3.976 3.135 141.7
9.999 -5.556 3.141 150.5
10.032 -6.288 3.165 153.3
10.066 -6.759 3.288 154.1
10.099 -7.150 3.353 154.9
10.132 -7.333 3.392 155.2
10.166 -7.407 3.402 155.3
10.199 -7.319 3.377 155.2
10.232 -7.046 3.341 154.6
10.266 -6.646 3.278 153.7
10.299 -6.110 3.215 152.2
10.332 -4.816 3.220 146.2
10.366 -4.744 3.063 147.2
10.399 -3.320 3.114 136.8
10.432 -2.546 3.056 129.8
10.466 -1.479 3.010 116.2
10.499 -0.538 2.988 100.2
10.532 0.408 2.983 82.2
10.566 1.411 3.007 64.9
10.599 2.386 3.033 51.8
10.632 3.244 3.098 43.7
10.666 4.028 3.183 38.3
10.699 4.748 3.256 34.4
10.732 5.348 3.329 31.9
10.766 5.860 3.389 30.0
10.799 6.177 3.440 29.1
10.832 6.474 3.469 28.2
10.866 6.862 3.481 26.9
10.899 6.810 3.479 27.1
10.932 6.636 3.440 27.4
10.966 6.243 3.386 28.5
10.999 5.690 3.323 30.3
11.032 5.004 3.244 33.0
11.066 4.211 3.176 37.0
11.099 3.367 3.104 42.7
11.132 2.428 3.042 51.4
11.166 1.413 2.992 64.7
11.199 0.352 2.977 83.3
11.232 -0.682 2.981 102.9
11.266 -1.665 3.000 119.0
11.299 -2.672 3.052 131.2
11.332 -3.619 3.135 139.1
11.366 -4.424 3.203 144.1
11.399 -5.135 3.279 147.4
11.432 -5.774 3.367 149.8
11.466 -6.235 3.438 151.1
11.499 -6.450 3.467 151.7
11.532 -6.524 3.468 152.0
11.566 -6.523 3.470 152.0
11.599 -6.359 3.446 151.5
11.632 -6.041 3.402 150.6
11.665 -5.562 3.339 149.0
11.699 -5.017 3.276 146.9
11.732 -4.329 3.202 143.5
11.765 -3.573 3.130 138.8
11.799 -2.742 3.071 131.8
11.832 -1.774 3.012 120.5
11.865 -0.786 2.976 104.8
11.899 3.744E-2 2.990 89.3
11.932 1.044 2.991 70.8
11.965 2.019 3.020 56.2
11.999 2.832 3.082 47.4
12.032 3.655 3.142 40.7
12.065 4.204 3.216 37.4
12.099 4.749 3.297 34.8
12.132 5.319 3.361 32.3
12.165 5.860 3.407 30.2
12.199 6.212 3.446 29.0
12.232 5.886 3.465 30.5
12.265 5.879 3.467 30.5
12.299 5.708 3.448 31.1
12.332 6.099 3.394 29.1
12.365 5.664 3.335 30.5
12.399 4.991 3.266 33.2
12.432 4.351 3.193 36.3
12.465 3.546 3.115 41.3
12.499 2.671 3.054 48.8
12.532 1.741 2.998 59.9
12.565 0.705 2.968 76.6
12.599 -0.339 2.970 96.5
12.632 -1.287 2.974 113.4
12.665 -2.275 3.023 127.0
12.699 -3.164 3.077 135.8
12.732 -4.007 3.148 141.8
12.765 -4.731 3.222 145.7
12.799 -5.338 3.307 148.2
12.832 -5.842 3.372 150.0
12.865 -6.162 3.417 151.0
12.899 -6.319 3.437 151.5
12.932 -6.330 3.442 151.5
12.965 -6.195 3.425 151.1
12.999 -5.313 3.821 144.3
13.032 -5.651 3.362 149.2
13.065 -5.125 3.294 147.3
13.099 -5.070 3.148 148.2
13.132 -4.353 3.036 145.1
13.165 -3.575 2.975 140.2
13.199 -2.001 3.032 123.4
13.232 -1.036 2.973 109.2
13.265 -0.168 2.975 93.2
13.299 0.729 2.990 76.3
13.332 1.671 3.006 60.9
13.365 2.549 3.049 50.1
13.399 3.377 3.116 42.7
13.432 4.147 3.180 37.5
13.465 4.748 3.252 34.4
13.499 5.405 3.317 31.5
13.532 5.892 3.375 29.8
13.565 6.262 3.415 28.6
13.599 6.509 3.424 27.7
13.632 6.571 3.426 27.5
13.665 6.471 3.416 27.8
13.699 6.257 3.385 28.4
13.732 5.649 3.363 30.8
13.765 5.094 3.297 32.9
13.799 4.437 3.223 36.0
13.832 3.782 3.153 39.8
13.865 2.961 3.084 46.2
13.899 2.053 3.024 55.8
13.932 1.098 2.992 69.8
13.965 0.102 2.991 88.0
13.999 -0.863 2.974 106.2
14.032 -1.817 3.020 121.0
14.065 -2.707 3.058 131.5
14.099 -3.517 3.120 138.4
14.132 -4.271 3.177 143.4
14.165 -4.909 3.253 146.5
14.199 -5.440 3.320 148.6
14.232 -5.778 3.362 149.8
14.265 -5.986 3.384 150.5
14.299 -6.073 3.398 150.8
14.332 -5.993 3.391 150.5
14.365 -5.816 3.358 150.0
14.399 -5.507 3.326 148.9
14.432 -5.004 3.265 146.9
14.465 -4.425 3.199 144.1
14.499 -3.801 3.136 140.5
14.532 -3.047 3.075 134.7
14.565 -2.248 3.026 126.6
14.599 -1.360 2.987 114.5
14.632 -0.453 2.965 98.7
14.665 0.426 2.965 81.8
14.699 1.344 2.986 65.8
14.732 2.182 3.025 54.2
14.765 3.020 3.080 45.6
14.799 3.799 3.130 39.5
14.832 4.453 3.202 35.7
14.865 5.107 3.247 32.4
14.899 5.609 3.314 30.6
14.932 6.054 3.362 29.0
14.965 6.350 3.370 28.0
14.998 6.429 3.383 27.8
15.032 6.388 3.378 27.9
15.065 6.198 3.352 28.4
15.098 5.841 3.321 29.6
15.132 5.383 3.261 31.2
15.165 4.769 3.210 33.9
15.198 4.061 3.136 37.7
15.232 3.276 3.067 43.1
15.265 2.389 3.015 51.6
15.298 1.478 2.974 63.6
15.332 0.514 2.968 80.2
15.365 -0.428 2.957 98.2
15.398 -1.364 2.966 114.7
15.432 -2.268 3.010 127.0
15.465 -3.117 3.075 135.4
15.498 -3.887 3.139 141.1
15.532 -4.506 3.189 144.7
15.565 -5.026 3.246 147.1
15.598 -5.445 3.304 148.8
15.632 -5.740 3.347 149.8
15.665 -5.890 3.368 150.2
15.698 -5.879 3.365 150.2
15.732 -5.727 3.348 149.7
